Etat de mer (9s ; 3m); Stratégie: amortissement avec écrêtage. 
Production sur 1000 s, Echantillonnage : 100 ms 
 
t (s) 	 Eta (m) 	 Theta (rad) 	 Omega (rad/s) 	 C (N.m) 
000.0  	 -0.19158  	 00.00000  	 00.00000  	 00000000 
000.1  	 -0.11297  	 00.00099  	 00.00987  	 00039484 
000.2  	 -0.02946  	 00.00277  	 00.01780  	 00071199 
000.3  	 00.05689  	 00.00512  	 00.02358  	 00094310 
000.4  	 00.14385  	 00.00783  	 00.02708  	 00108325 
000.5  	 00.22908  	 00.01066  	 00.02827  	 00113096 
000.6  	 00.31027  	 00.01338  	 00.02720  	 00108808 
000.7  	 00.38530  	 00.01578  	 00.02399  	 00095954 
000.8  	 00.45226  	 00.01766  	 00.01883  	 00075311 
000.9  	 00.50958  	 00.01886  	 00.01197  	 00047899 
001.0  	 00.55609  	 00.01923  	 00.00373  	 00014931 
001.1  	 00.59108  	 00.01868  	 -0.00556  	 -0022231 
001.2  	 00.61424  	 00.01712  	 -0.01553  	 -0062132 
001.3  	 00.62575  	 00.01454  	 -0.02582  	 -0103278 
001.4  	 00.62618  	 00.01094  	 -0.03604  	 -0144179 
001.5  	 00.61646  	 00.00635  	 -0.04585  	 -0183404 
001.6  	 00.59783  	 00.00086  	 -0.05490  	 -0219614 
001.7  	 00.57174  	 -0.00543  	 -0.06290  	 -0251605 
001.8  	 00.53977  	 -0.01239  	 -0.06958  	 -0278334 
001.9  	 00.50358  	 -0.01986  	 -0.07474  	 -0298943 
002.0  	 00.46478  	 -0.02768  	 -0.07819  	 -0312778 
002.1  	 00.42490  	 -0.03566  	 -0.07985  	 -0319396 
002.2  	 00.38534  	 -0.04363  	 -0.07964  	 -0318568 
002.3  	 00.34726  	 -0.05139  	 -0.07757  	 -0310276 
002.4  	 00.31163  	 -0.05875  	 -0.07368  	 -0294704 
002.5  	 00.27915  	 -0.06556  	 -0.06806  	 -0272224 
002.6  	 00.25031  	 -0.07164  	 -0.06084  	 -0243379 
002.7  	 00.22532  	 -0.07686  	 -0.05221  	 -0208859 
002.8  	 00.20422  	 -0.08110  	 -0.04237  	 -0169479 
002.9  	 00.18684  	 -0.08426  	 -0.03154  	 -0126151 
003.0  	 00.17288  	 -0.08625  	 -0.01996  	 -0079857 
003.1  	 00.16190  	 -0.08704  	 -0.00790  	 -0031618 
003.2  	 00.15340  	 -0.08660  	 00.00438  	 00017533 
003.3  	 00.14684  	 -0.08494  	 00.01664  	 00066577 
003.4  	 00.14167  	 -0.08208  	 00.02863  	 00114537 
003.5  	 00.13732  	 -0.07806  	 00.04012  	 00160492 
003.6  	 00.13328  	 -0.07297  	 00.05090  	 00203604 
003.7  	 00.12907  	 -0.06690  	 00.06078  	 00243128 
003.8  	 00.12424  	 -0.05993  	 00.06961  	 00278424 
003.9  	 00.11844  	 -0.05221  	 00.07724  	 00308972 
004.0  	 00.11132  	 -0.04385  	 00.08359  	 00334372 
004.1  	 00.10262  	 -0.03499  	 00.08859  	 00354351 
004.2  	 00.09212  	 -0.02577  	 00.09219  	 00368762 
004.3  	 00.07963  	 -0.01633  	 00.09440  	 00377581 
004.4  	 00.06503  	 -0.00681  	 00.09523  	 00380902 
004.5  	 00.04824  	 00.00266  	 00.09473  	 00378927 
004.6  	 00.02921  	 00.01196  	 00.09299  	 00371961 
004.7  	 00.00798  	 00.02097  	 00.09010  	 00360395 
004.8  	 -0.01538  	 00.02959  	 00.08617  	 00344695 
004.9  	 -0.04074  	 00.03772  	 00.08135  	 00325386 
005.0  	 -0.06788  	 00.04530  	 00.07576  	 00303035 
005.1  	 -0.09651  	 00.05225  	 00.06956  	 00278236 
005.2  	 -0.12627  	 00.05854  	 00.06290  	 00251591 
005.3  	 -0.15670  	 00.06414  	 00.05592  	 00223694 
005.4  	 -0.18729  	 00.06901  	 00.04878  	 00195113 
005.5  	 -0.21744  	 00.07317  	 00.04159  	 00166376 
005.6  	 -0.24646  	 00.07662  	 00.03449  	 00137959 
005.7  	 -0.27365  	 00.07938  	 00.02757  	 00110275 
005.8  	 -0.29822  	 00.08147  	 00.02092  	 00083662 
005.9  	 -0.31941  	 00.08293  	 00.01460  	 00058383 
006.0  	 -0.33642  	 00.08380  	 00.00865  	 00034616 
006.1  	 -0.34849  	 00.08411  	 00.00311  	 00012458 
006.2  	 -0.35490  	 00.08391  	 -0.00202  	 -0008075 
006.3  	 -0.35502  	 00.08323  	 -0.00676  	 -0027044 
006.4  	 -0.34829  	 00.08212  	 -0.01115  	 -0044581 
006.5  	 -0.33430  	 00.08059  	 -0.01522  	 -0060874 
006.6  	 -0.31277  	 00.07869  	 -0.01904  	 -0076161 
006.7  	 -0.28361  	 00.07642  	 -0.02268  	 -0090714 
006.8  	 -0.24687  	 00.07380  	 -0.02621  	 -0104825 
006.9  	 -0.20284  	 00.07083  	 -0.02970  	 -0118787 
007.0  	 -0.15198  	 00.06751  	 -0.03322  	 -0132887 
007.1  	 -0.09498  	 00.06382  	 -0.03685  	 -0147384 
007.2  	 -0.03270  	 00.05976  	 -0.04062  	 -0162497 
007.3  	 00.03378  	 00.05530  	 -0.04460  	 -0178393 
007.4  	 00.10324  	 00.05042  	 -0.04879  	 -0195177 
007.5  	 00.17431  	 00.04510  	 -0.05322  	 -0212880 
007.6  	 00.24551  	 00.03931  	 -0.05786  	 -0231456 
007.7  	 00.31530  	 00.03304  	 -0.06269  	 -0250778 
007.8  	 00.38210  	 00.02628  	 -0.06766  	 -0270638 
007.9  	 00.44439  	 00.01901  	 -0.07269  	 -0290748 
008.0  	 00.50067  	 00.01124  	 -0.07769  	 -0310753 
008.1  	 00.54963  	 00.00299  	 -0.08256  	 -0330232 
008.2  	 00.59007  	 -0.00573  	 -0.08718  	 -0348715 
008.3  	 00.62104  	 -0.01487  	 -0.09142  	 -0365692 
008.4  	 00.64183  	 -0.02439  	 -0.09516  	 -0380633 
008.5  	 00.65201  	 -0.03422  	 -0.09825  	 -0392996 
008.6  	 00.65144  	 -0.04427  	 -0.10056  	 -0402252 
008.7  	 00.64026  	 -0.05447  	 -0.10197  	 -0407893 
008.8  	 00.61890  	 -0.06471  	 -0.10236  	 -0409456 
008.9  	 00.58807  	 -0.07487  	 -0.10163  	 -0406530 
009.0  	 00.54870  	 -0.08484  	 -0.09969  	 -0398775 
009.1  	 00.50190  	 -0.09449  	 -0.09648  	 -0385928 
009.2  	 00.44893  	 -0.10368  	 -0.09195  	 -0367814 
009.3  	 00.39112  	 -0.11229  	 -0.08609  	 -0344356 
009.4  	 00.32984  	 -0.12018  	 -0.07889  	 -0315570 
009.5  	 00.26640  	 -0.12722  	 -0.07039  	 -0281576 
009.6  	 00.20206  	 -0.13328  	 -0.06065  	 -0242596 
009.7  	 00.13793  	 -0.13826  	 -0.04974  	 -0198948 
009.8  	 00.07498  	 -0.14203  	 -0.03776  	 -0151048 
009.9  	 00.01396  	 -0.14452  	 -0.02485  	 -0099402 
010.0  	 -0.04452  	 -0.14563  	 -0.01115  	 -0044595 
010.1  	 -0.10008  	 -0.14532  	 00.00318  	 00012712 
010.2  	 -0.15252  	 -0.14352  	 00.01795  	 00071800 
010.3  	 -0.20175  	 -0.14022  	 00.03297  	 00131896 
010.4  	 -0.24784  	 -0.13542  	 00.04805  	 00192192 
010.5  	 -0.29093  	 -0.12912  	 00.06296  	 00251857 
010.6  	 -0.33119  	 -0.12137  	 00.07751  	 00310051 
010.7  	 -0.36881  	 -0.11222  	 00.09148  	 00365938 
010.8  	 -0.40396  	 -0.10176  	 00.10468  	 00418709 
010.9  	 -0.43674  	 -0.09007  	 00.11690  	 00467587 
011.0  	 -0.46721  	 -0.07727  	 00.12796  	 00511850 
011.1  	 -0.49534  	 -0.06350  	 00.13771  	 00550842 
011.2  	 -0.52104  	 -0.04890  	 00.14600  	 00583984 
011.3  	 -0.54417  	 -0.03363  	 00.15270  	 00610786 
011.4  	 -0.56455  	 -0.01786  	 00.15771  	 00630858 
011.5  	 -0.58199  	 -0.00176  	 00.16098  	 00643916 
011.6  	 -0.59633  	 00.01449  	 00.16245  	 00649789 
011.7  	 -0.60744  	 00.03070  	 00.16211  	 00648421 
011.8  	 -0.61527  	 00.04669  	 00.15997  	 00639872 
011.9  	 -0.61984  	 00.06230  	 00.15608  	 00624317 
012.0  	 -0.62127  	 00.07735  	 00.15051  	 00602041 
012.1  	 -0.61973  	 00.09169  	 00.14336  	 00573428 
012.2  	 -0.61547  	 00.10516  	 00.13474  	 00538954 
012.3  	 -0.60878  	 00.11764  	 00.12479  	 00499169 
012.4  	 -0.59994  	 00.12901  	 00.11367  	 00454685 
012.5  	 -0.58923  	 00.13916  	 00.10154  	 00406158 
012.6  	 -0.57682  	 00.14802  	 00.08857  	 00354269 
012.7  	 -0.56279  	 00.15551  	 00.07493  	 00299709 
012.8  	 -0.54708  	 00.16159  	 00.06079  	 00243156 
012.9  	 -0.52949  	 00.16622  	 00.04632  	 00185266 
013.0  	 -0.50963  	 00.16939  	 00.03166  	 00126654 
013.1  	 -0.48698  	 00.17108  	 00.01697  	 00067882 
013.2  	 -0.46090  	 00.17132  	 00.00236  	 00009456 
013.3  	 -0.43065  	 00.17012  	 -0.01205  	 -0048184 
013.4  	 -0.39546  	 00.16750  	 -0.02617  	 -0104664 
013.5  	 -0.35461  	 00.16351  	 -0.03992  	 -0159672 
013.6  	 -0.30746  	 00.15818  	 -0.05324  	 -0212957 
013.7  	 -0.25355  	 00.15158  	 -0.06608  	 -0264321 
013.8  	 -0.19268  	 00.14374  	 -0.07840  	 -0313607 
013.9  	 -0.12490  	 00.13472  	 -0.09017  	 -0360693 
014.0  	 -0.05063  	 00.12458  	 -0.10137  	 -0405479 
014.1  	 00.02938  	 00.11338  	 -0.11197  	 -0447876 
014.2  	 00.11402  	 00.10119  	 -0.12195  	 -0487792 
014.3  	 00.20184  	 00.08806  	 -0.13128  	 -0525126 
014.4  	 00.29114  	 00.07407  	 -0.13994  	 -0559757 
014.5  	 00.37997  	 00.05928  	 -0.14788  	 -0591535 
014.6  	 00.46625  	 00.04377  	 -0.15507  	 -0620283 
014.7  	 00.54788  	 00.02763  	 -0.16145  	 -0645784 
014.8  	 00.62278  	 00.01093  	 -0.16695  	 -0667793 
014.9  	 00.68904  	 -0.00622  	 -0.17151  	 -0686028 
015.0  	 00.74496  	 -0.02372  	 -0.17504  	 -0700179 
015.1  	 00.78916  	 -0.04147  	 -0.17748  	 -0709915 
015.2  	 00.82060  	 -0.05934  	 -0.17872  	 -0714886 
015.3  	 00.83866  	 -0.07721  	 -0.17868  	 -0714731 
015.4  	 00.84306  	 -0.09494  	 -0.17727  	 -0709089 
015.5  	 00.83394  	 -0.11238  	 -0.17440  	 -0697600 
015.6  	 00.81175  	 -0.12938  	 -0.16998  	 -0679921 
015.7  	 00.77724  	 -0.14577  	 -0.16393  	 -0655727 
015.8  	 00.73137  	 -0.16139  	 -0.15618  	 -0624726 
015.9  	 00.67525  	 -0.17605  	 -0.14667  	 -0586662 
016.0  	 00.61006  	 -0.18959  	 -0.13533  	 -0541331 
016.1  	 00.53700  	 -0.20180  	 -0.12215  	 -0488589 
016.2  	 00.45724  	 -0.21251  	 -0.10709  	 -0428367 
016.3  	 00.37189  	 -0.22153  	 -0.09017  	 -0360687 
016.4  	 00.28199  	 -0.22867  	 -0.07142  	 -0285681 
016.5  	 00.18849  	 -0.23376  	 -0.05090  	 -0203607 
016.6  	 00.09235  	 -0.23663  	 -0.02872  	 -0114872 
016.7  	 -0.00547  	 -0.23713  	 -0.00501  	 -0020047 
016.8  	 -0.10396  	 -0.23513  	 00.02003  	 00080114 
016.9  	 -0.20195  	 -0.23051  	 00.04617  	 00184667 
017.0  	 -0.29811  	 -0.22320  	 00.07312  	 00292469 
017.1  	 -0.39090  	 -0.21315  	 00.10055  	 00402186 
017.2  	 -0.47852  	 -0.20034  	 00.12808  	 00512301 
017.3  	 -0.55894  	 -0.18481  	 00.15528  	 00621137 
017.4  	 -0.62993  	 -0.16664  	 00.18172  	 00726880 
017.5  	 -0.68914  	 -0.14595  	 00.20691  	 00827624 
017.6  	 -0.73415  	 -0.12291  	 00.23035  	 00921406 
017.7  	 -0.76263  	 -0.09776  	 00.25156  	 01006256 
017.8  	 -0.77248  	 -0.07075  	 00.27006  	 01080248 
017.9  	 -0.76193  	 -0.04221  	 00.28539  	 01141548 
018.0  	 -0.72973  	 -0.01250  	 00.29712  	 01188465 
018.1  	 -0.67528  	 00.01799  	 00.30488  	 01219510 
018.2  	 -0.59873  	 00.04882  	 00.30836  	 01233437 
018.3  	 -0.50103  	 00.07956  	 00.30733  	 01229300 
018.4  	 -0.38403  	 00.10972  	 00.30162  	 01206495 
018.5  	 -0.25038  	 00.13884  	 00.29120  	 01164800 
018.6  	 -0.10356  	 00.16645  	 00.27610  	 01104410 
018.7  	 00.05233  	 00.19210  	 00.25649  	 01025952 
018.8  	 00.21266  	 00.21536  	 00.23262  	 00930494 
018.9  	 00.37249  	 00.23585  	 00.20488  	 00819528 
019.0  	 00.52683  	 00.25322  	 00.17373  	 00694936 
019.1  	 00.67083  	 00.26719  	 00.13974  	 00558943 
019.2  	 00.80004  	 00.27755  	 00.10351  	 00414048 
019.3  	 00.91064  	 00.28412  	 00.06574  	 00262942 
019.4  	 00.99958  	 00.28683  	 00.02711  	 00108423 
019.5  	 01.06481  	 00.28566  	 -0.01167  	 -0046693 
019.6  	 01.10527  	 00.28067  	 -0.04991  	 -0199655 
019.7  	 01.12102  	 00.27197  	 -0.08696  	 -0347854 
019.8  	 01.11311  	 00.25975  	 -0.12222  	 -0488882 
019.9  	 01.08356  	 00.24424  	 -0.15515  	 -0620584 
020.0  	 01.03517  	 00.22571  	 -0.18527  	 -0741086 
020.1  	 00.97133  	 00.20449  	 -0.21220  	 -0848820 
020.2  	 00.89579  	 00.18093  	 -0.23563  	 -0942526 
020.3  	 00.81244  	 00.15540  	 -0.25531  	 -1021252 
020.4  	 00.72504  	 00.12829  	 -0.27109  	 -1084343 
020.5  	 00.63699  	 00.10000  	 -0.28286  	 -1131426 
020.6  	 00.55117  	 00.07094  	 -0.29060  	 -1162391 
020.7  	 00.46977  	 00.04151  	 -0.29434  	 -1177371 
020.8  	 00.39416  	 00.01209  	 -0.29418  	 -1176721 
020.9  	 00.32494  	 -0.01693  	 -0.29025  	 -1160994 
021.0  	 00.26190  	 -0.04521  	 -0.28273  	 -1130923 
021.1  	 00.20411  	 -0.07239  	 -0.27185  	 -1087396 
021.2  	 00.15009  	 -0.09818  	 -0.25786  	 -1031433 
021.3  	 00.09797  	 -0.12228  	 -0.24104  	 -0964168 
021.4  	 00.04568  	 -0.14445  	 -0.22171  	 -0886826 
021.5  	 -0.00884  	 -0.16447  	 -0.20017  	 -0800696 
021.6  	 -0.06742  	 -0.18215  	 -0.17678  	 -0707116 
021.7  	 -0.13150  	 -0.19733  	 -0.15186  	 -0607446 
021.8  	 -0.20199  	 -0.20991  	 -0.12576  	 -0503048 
021.9  	 -0.27913  	 -0.21979  	 -0.09882  	 -0395270 
022.0  	 -0.36253  	 -0.22693  	 -0.07136  	 -0285425 
022.1  	 -0.45109  	 -0.23130  	 -0.04369  	 -0174773 
022.2  	 -0.54313  	 -0.23291  	 -0.01613  	 -0064517 
022.3  	 -0.63648  	 -0.23181  	 00.01105  	 00044214 
022.4  	 -0.72861  	 -0.22805  	 00.03759  	 00150370 
022.5  	 -0.81686  	 -0.22172  	 00.06324  	 00252978 
022.6  	 -0.89858  	 -0.21294  	 00.08779  	 00351147 
022.7  	 -0.97134  	 -0.20184  	 00.11102  	 00444062 
022.8  	 -1.03308  	 -0.18857  	 00.13275  	 00530984 
022.9  	 -1.08224  	 -0.17329  	 00.15281  	 00611239 
023.0  	 -1.11785  	 -0.15618  	 00.17105  	 00684218 
023.1  	 -1.13961  	 -0.13745  	 00.18734  	 00749364 
023.2  	 -1.14782  	 -0.11729  	 00.20154  	 00806178 
023.3  	 -1.14338  	 -0.09594  	 00.21355  	 00854205 
023.4  	 -1.12763  	 -0.07361  	 00.22326  	 00893038 
023.5  	 -1.10229  	 -0.05055  	 00.23058  	 00922322 
023.6  	 -1.06921  	 -0.02701  	 00.23544  	 00941752 
023.7  	 -1.03030  	 -0.00323  	 00.23777  	 00951080 
023.8  	 -0.98729  	 00.02052  	 00.23753  	 00950127 
023.9  	 -0.94164  	 00.04399  	 00.23470  	 00938788 
024.0  	 -0.89441  	 00.06692  	 00.22926  	 00917044 
024.1  	 -0.84617  	 00.08904  	 00.22124  	 00884974 
024.2  	 -0.79702  	 00.11011  	 00.21069  	 00842765 
024.3  	 -0.74660  	 00.12988  	 00.19768  	 00790722 
024.4  	 -0.69413  	 00.14811  	 00.18232  	 00729278 
024.5  	 -0.63855  	 00.16459  	 00.16475  	 00658998 
024.6  	 -0.57866  	 00.17910  	 00.14515  	 00580586 
024.7  	 -0.51328  	 00.19147  	 00.12372  	 00494883 
024.8  	 -0.44139  	 00.20154  	 00.10072  	 00402863 
024.9  	 -0.36230  	 00.20918  	 00.07641  	 00305622 
025.0  	 -0.27578  	 00.21429  	 00.05109  	 00204372 
025.1  	 -0.18216  	 00.21680  	 00.02510  	 00100417 
025.2  	 -0.08234  	 00.21668  	 -0.00122  	 -0004864 
025.3  	 00.02217  	 00.21393  	 -0.02751  	 -0110043 
025.4  	 00.12929  	 00.20859  	 -0.05342  	 -0213666 
025.5  	 00.23654  	 00.20073  	 -0.07857  	 -0314285 
025.6  	 00.34110  	 00.19047  	 -0.10262  	 -0410484 
025.7  	 00.44006  	 00.17795  	 -0.12523  	 -0500908 
025.8  	 00.53055  	 00.16334  	 -0.14607  	 -0584291 
025.9  	 00.60995  	 00.14685  	 -0.16487  	 -0659485 
026.0  	 00.67612  	 00.12872  	 -0.18137  	 -0725477 
026.1  	 00.72751  	 00.10918  	 -0.19535  	 -0781416 
026.2  	 00.76327  	 00.08852  	 -0.20666  	 -0826630 
026.3  	 00.78340  	 00.06700  	 -0.21516  	 -0860636 
026.4  	 00.78868  	 00.04492  	 -0.22079  	 -0883156 
026.5  	 00.78070  	 00.02257  	 -0.22353  	 -0894118 
026.6  	 00.76171  	 00.00023  	 -0.22341  	 -0893658 
026.7  	 00.73453  	 -0.02183  	 -0.22053  	 -0882118 
026.8  	 00.70234  	 -0.04333  	 -0.21501  	 -0860035 
026.9  	 00.66850  	 -0.06403  	 -0.20703  	 -0828126 
027.0  	 00.63630  	 -0.08371  	 -0.19682  	 -0787266 
027.1  	 00.60876  	 -0.10217  	 -0.18462  	 -0738466 
027.2  	 00.58846  	 -0.11925  	 -0.17071  	 -0682841 
027.3  	 00.57733  	 -0.13478  	 -0.15539  	 -0621580 
027.4  	 00.57657  	 -0.14868  	 -0.13898  	 -0555909 
027.5  	 00.58655  	 -0.16086  	 -0.12177  	 -0487061 
027.6  	 00.60681  	 -0.17126  	 -0.10406  	 -0416236 
027.7  	 00.63609  	 -0.17988  	 -0.08614  	 -0344575 
027.8  	 00.67243  	 -0.18671  	 -0.06828  	 -0273128 
027.9  	 00.71330  	 -0.19178  	 -0.05071  	 -0202833 
028.0  	 00.75574  	 -0.19514  	 -0.03362  	 -0134493 
028.1  	 00.79659  	 -0.19686  	 -0.01719  	 -0068764 
028.2  	 00.83265  	 -0.19701  	 -0.00154  	 -0006145 
028.3  	 00.86089  	 -0.19569  	 00.01326  	 00053024 
028.4  	 00.87859  	 -0.19297  	 00.02714  	 00108559 
028.5  	 00.88354  	 -0.18896  	 00.04011  	 00160428 
028.6  	 00.87409  	 -0.18374  	 00.05218  	 00208737 
028.7  	 00.84925  	 -0.17740  	 00.06343  	 00253714 
028.8  	 00.80867  	 -0.17001  	 00.07392  	 00295687 
028.9  	 00.75270  	 -0.16163  	 00.08377  	 00335064 
029.0  	 00.68225  	 -0.15233  	 00.09308  	 00372306 
029.1  	 00.59875  	 -0.14213  	 00.10197  	 00407897 
029.2  	 00.50406  	 -0.13107  	 00.11058  	 00442313 
029.3  	 00.40030  	 -0.11917  	 00.11900  	 00475995 
029.4  	 00.28977  	 -0.10644  	 00.12733  	 00509317 
029.5  	 00.17484  	 -0.09287  	 00.13564  	 00542558 
029.6  	 00.05781  	 -0.07848  	 00.14397  	 00575878 
029.7  	 -0.05912  	 -0.06324  	 00.15232  	 00609296 
029.8  	 -0.17394  	 -0.04718  	 00.16067  	 00642676 
029.9  	 -0.28487  	 -0.03028  	 00.16893  	 00675716 
030.0  	 -0.39034  	 -0.01259  	 00.17699  	 00707953 
030.1  	 -0.48902  	 00.00588  	 00.18469  	 00738760 
030.2  	 -0.57979  	 00.02507  	 00.19184  	 00767369 
030.3  	 -0.66170  	 00.04489  	 00.19822  	 00792886 
030.4  	 -0.73396  	 00.06525  	 00.20358  	 00814320 
030.5  	 -0.79592  	 00.08601  	 00.20765  	 00830617 
030.6  	 -0.84704  	 00.10703  	 00.21017  	 00840700 
030.7  	 -0.88686  	 00.12812  	 00.21088  	 00843502 
030.8  	 -0.91507  	 00.14907  	 00.20950  	 00838015 
030.9  	 -0.93148  	 00.16965  	 00.20583  	 00823326 
031.0  	 -0.93605  	 00.18962  	 00.19967  	 00798662 
031.1  	 -0.92892  	 00.20870  	 00.19086  	 00763421 
031.2  	 -0.91046  	 00.22663  	 00.17930  	 00717209 
031.3  	 -0.88129  	 00.24313  	 00.16497  	 00659863 
031.4  	 -0.84226  	 00.25792  	 00.14787  	 00591476 
031.5  	 -0.79449  	 00.27073  	 00.12810  	 00512403 
031.6  	 -0.73934  	 00.28131  	 00.10582  	 00423262 
031.7  	 -0.67835  	 00.28943  	 00.08123  	 00324929 
031.8  	 -0.61322  	 00.29490  	 00.05463  	 00218517 
031.9  	 -0.54569  	 00.29753  	 00.02634  	 00105348 
032.0  	 -0.47750  	 00.29720  	 -0.00327  	 -0013087 
032.1  	 -0.41026  	 00.29382  	 -0.03379  	 -0135163 
032.2  	 -0.34542  	 00.28734  	 -0.06479  	 -0259175 
032.3  	 -0.28413  	 00.27776  	 -0.09584  	 -0383377 
032.4  	 -0.22718  	 00.26511  	 -0.12651  	 -0506033 
032.5  	 -0.17505  	 00.24947  	 -0.15636  	 -0625454 
032.6  	 -0.12778  	 00.23097  	 -0.18501  	 -0740031 
032.7  	 -0.08508  	 00.20976  	 -0.21207  	 -0848267 
032.8  	 -0.04637  	 00.18604  	 -0.23720  	 -0948793 
032.9  	 -0.01081  	 00.16004  	 -0.26010  	 -1040382 
033.0  	 00.02253  	 00.13199  	 -0.28049  	 -1121952 
033.1  	 00.05458  	 00.10217  	 -0.29814  	 -1192571 
033.2  	 00.08617  	 00.07089  	 -0.31286  	 -1251448 
033.3  	 00.11786  	 00.03844  	 -0.32448  	 -1297929 
033.4  	 00.14988  	 00.00515  	 -0.33287  	 -1331490 
033.5  	 00.18204  	 -0.02864  	 -0.33793  	 -1351731 
033.6  	 00.21367  	 -0.06260  	 -0.33959  	 -1358371 
033.7  	 00.24366  	 -0.09638  	 -0.33781  	 -1351245 
033.8  	 00.27045  	 -0.12964  	 -0.33258  	 -1330301 
033.9  	 00.29215  	 -0.16203  	 -0.32390  	 -1295607 
034.0  	 00.30664  	 -0.19321  	 -0.31184  	 -1247346 
034.1  	 00.31174  	 -0.22286  	 -0.29646  	 -1185823 
034.2  	 00.30540  	 -0.25065  	 -0.27787  	 -1111469 
034.3  	 00.28582  	 -0.27627  	 -0.25621  	 -1024837 
034.4  	 00.25171  	 -0.29943  	 -0.23165  	 -0926607 
034.5  	 00.20242  	 -0.31987  	 -0.20440  	 -0817585 
034.6  	 00.13805  	 -0.33734  	 -0.17467  	 -0698695 
034.7  	 00.05955  	 -0.35161  	 -0.14275  	 -0570982 
034.8  	 -0.03122  	 -0.36250  	 -0.10890  	 -0435605 
034.9  	 -0.13156  	 -0.36985  	 -0.07346  	 -0293829 
035.0  	 -0.23797  	 -0.37353  	 -0.03676  	 -0147025 
035.1  	 -0.34630  	 -0.37344  	 00.00084  	 00003343 
035.2  	 -0.45195  	 -0.36955  	 00.03893  	 00155717 
035.3  	 -0.55008  	 -0.36184  	 00.07712  	 00308466 
035.4  	 -0.63585  	 -0.35034  	 00.11497  	 00459889 
035.5  	 -0.70471  	 -0.33513  	 00.15206  	 00608234 
035.6  	 -0.75261  	 -0.31634  	 00.18793  	 00751713 
035.7  	 -0.77625  	 -0.29413  	 00.22213  	 00888523 
035.8  	 -0.77326  	 -0.26871  	 00.25422  	 01016863 
035.9  	 -0.74236  	 -0.24033  	 00.28374  	 01134963 
